north(m) east(m),
815299.062 836680.7974,
815300.746 836684.1492,
815302.43 836687.501,
815303.3003 836689.2423,
815304.996 836692.635,
815309.171 836692.2278,
815313.346 836691.8206,
815317.0854 836691.4559,
815320.8249 836691.0911,
815324.5643 836690.7264,
815328.4327 836690.9428,
815332.301 836691.1592,
815336.1694 836691.3756,
815340.0377 836691.592,
815344.6944 836692.078,
815349.351 836692.564,
815354.3272 836692.925,
815359.3033 836693.286,
815364.2795 836693.647,
815369.2557 836694.008,
815374.2318 836694.369,
815379.208 836694.73,
815383.9149 836694.9058,
815388.6219 836695.0817,
815393.3288 836695.2575,
815398.0357 836695.4333,
815402.7426 836695.6091,
815407.4496 836695.785,
815412.1565 836695.9608,
815416.8634 836696.1366,
815416.8634 836696.1366,
815421.1371 836696.4945,
815421.1371 836696.4945,
815424.6955 836698.993,
815428.5568 836699.6744,
815432.418 836700.3557,
815437.2277 836700.6267,
815442.0373 836700.8976,
815446.6728 836701.1588,
815451.3083 836701.4199,
815455.9439 836701.6811,
815460.5794 836701.9422,
815465.2149 836702.2034,
815469.8504 836702.4646,
815474.486 836702.7257,
815479.1215 836702.9869,
815483.757 836703.2481,
815488.3925 836703.5092,
815493.0281 836703.7704,
815497.6636 836704.0315,
815502.2991 836704.2927,
815507.0641 836704.598,
815511.8291 836704.9032,
815516.5941 836705.2085,
815521.3591 836705.5137,
815526.1241 836705.819,
815530.8891 836706.1242,
815535.6541 836706.4295,
815540.4191 836706.7348,
815545.1841 836707.04,
815549.9491 836707.3453,
815554.7141 836707.6505,
815559.4791 836707.9558,
815564.2441 836708.261,
815569.0091 836708.5663,
815573.7741 836708.8715,
815578.5391 836709.1768,
815583.1528 836709.4001,
815587.7665 836709.6233,
815592.0453 836709.2512,
815596.3241 836708.8791,
815600.8262 836708.0978,
815605.3282 836707.3164,
815609.6175 836706.3896,
815613.9067 836705.4628,
815618.196 836704.536,
815622.203 836702.9902,
815626.2099 836701.4444,
815630.2169 836699.8987,
815634.2238 836698.3529,
815638.2308 836696.8071,
815642.2377 836695.2613,
815645.9956 836694.7032,
815649.7536 836694.1451,
815653.5115 836693.587,
815657.2694 836693.0289,
815661.6083 836691.3059,
815665.9472 836689.5829,
815670.2861 836687.86,
815674.6251 836686.137,
815678.964 836684.414,
815683.3029 836682.691,
815687.6418 836680.9681,
815691.9807 836679.2451,
815696.3196 836677.5221,
815700.6586 836675.7991,
815704.9975 836674.0762,
815709.3364 836672.3532,
815713.6753 836670.6302,
815718.1681 836668.8365,
815722.6608 836667.0428,
815727.1536 836665.2491,
815731.6463 836663.4553,
815736.1391 836661.6616,
815740.6318 836659.8679,
815744.9842 836658.1404,
815749.3365 836656.4128,
815749.3985 836656.389,
815751.7292 836655.4849,
815751.7292 836655.4849,
815755.4594 836653.8063,
815755.4594 836653.8063,
815757.9923 836651.7447,
815757.9923 836651.7447,
815762.2671 836651.4338,
815762.2671 836651.4338,
815766.1298 836649.5771,
815769.0514 836647.4601,
815771.973 836645.343,
815773.8652 836643.6449,
815775.7574 836641.9467,
815775.7574 836641.9467,
815779.0566 836638.6475,
815779.0566 836638.6475,
815781.0944 836636.5127,
815781.5371 836636.0297,
815784.2965 836633.0194,
815786.4313 836630.3671,
815788.5661 836627.7148,
815790.7009 836625.0625,
815790.7009 836625.0625,
815792.9328 836621.9573,
815793.9295 836620.6572,
815795.1646 836619.0462,
815795.1646 836619.0462,
815796.8099 836616.9015,
815797.7893 836615.6247,
815799.3221 836613.6266,
815799.3221 836613.6266,
815800.5986 836611.9626,
815803.8979 836608.5178,
815807.1971 836605.073,
815812.0004 836601.0946,
815814.3777 836599.2509,
815817.7255 836597.3102,
815821.0732 836595.3694,
815824.1299 836594.0594,
815827.1865 836592.7494,
815827.1865 836592.7494,
815831.6502 836591.1969,
815831.6502 836591.1969,
815835.6286 836590.5176,
815839.0734 836590.3236,
815842.5182 836590.1295,
815845.2837 836590.1295,
815848.0492 836590.1295,
815848.0492 836590.1295,
815852.707 836590.8087,
815855.23 836591.391,
815857.7529 836591.9732,
815861.974 836593.5743,
815866.195 836595.1753,
815870.222 836597.6983,
815874.249 836600.2212,
815876.9296 836602.5137,
815879.6102 836604.8062,
815879.6102 836604.8062,
815881.4297 836606.4073,
815881.4297 836606.4073,
815883.3219 836608.1539,
815883.3219 836608.1539,
815883.9378 836611.7368,
815885.2491 836613.8795,
815886.5603 836616.0222,
815886.5603 836616.0222,
815888.4152 836619.8599,
815888.4152 836619.8599,
815889.5025 836622.9941,
815890.2061 836626.576,
815890.9097 836630.1578,
815891.0057 836633.26,
815891.1016 836636.3622,
815891.1016 836636.3622,
815890.9097 836640.2639,
815890.0563 836643.0489,
815889.2029 836645.8338,
815888.4051 836649.8548,
815887.6074 836653.8758,
815886.8096 836657.8969,
815886.0119 836661.9179,
815885.2141 836665.9389,
815884.547 836669.7233,
815883.8798 836673.5077,
815883.2127 836677.2921,
815883.0239 836680.5521,
815882.835 836683.812,
815882.835 836687.838,
815882.835 836691.864,
815883.5753 836695.8813,
815884.3157 836699.8987,
815885.056 836703.916,
815886.4807 836707.516,
815887.9053 836711.116,
815889.33 836714.716,
815891.3327 836717.577,
815893.3353 836720.438,
815895.338 836723.299,
815898.321 836726.436,
815901.304 836729.573,
815903.3635 836731.264,
815905.423 836732.955,
815905.423 836732.955,
815909.6354 836735.4827,
815912.3801 836737.1296,
815914.8128 836738.5893,
815917.6188 836740.0459,
815920.1586 836741.3427,
815923.4102 836743.003,
815926.244 836744.45,
815930.5105 836746.795,
815934.777 836749.14,
815937.873 836750.848,
815940.969 836752.556,
815944.3297 836754.7943,
815947.6903 836757.0327,
815951.051 836759.271,
815954.3715 836761.7375,
815957.692 836764.204,
815960.9417 836766.7836,
815964.1914 836769.3632,
815967.441 836771.9427,
815970.6907 836774.5223,
815973.1651 836776.8997,
815975.6396 836779.277,
815978.114 836781.6544,
815980.734 836784.4685,
815983.3539 836787.2825,
815985.9739 836790.0966,
815988.9214 836793.4625,
815991.8689 836796.8285,
815994.8163 836800.1944,
815997.7638 836803.5603,
816000.1433 836806.8179,
816002.5229 836810.0755,
816004.9024 836813.3332,
816007.282 836816.5908,
816009.6615 836819.8484,
816012.792 836821.2933,
816015.9225 836822.7381,
816015.9225 836822.7381,
816018.9419 836825.7573,
816022.1198 836829.3234,
816025.2978 836832.8895,
816028.4757 836836.4556,
816031.7022 836839.6578,
816034.9286 836842.8599,
816038.1551 836846.0621,
816041.5028 836848.9186,
816044.8506 836851.7751,
816048.1983 836854.6316,
816051.546 836857.4881,
816055.3062 836860.472,
816059.0663 836863.4558,
816062.8265 836866.4397,
816065.8634 836868.671,
816068.9003 836870.9022,
816072.5904 836873.3778,
816076.2805 836875.8533,
816079.9706 836878.3289,
816083.6607 836880.8044,
816087.3508 836883.28,
816090.5886 836885.1388,
816093.8264 836886.9976,
816097.0642 836888.8564,
816103.037 836892.1542,
816107.014 836894.35,
816111.6503 836896.05,
816116.2865 836897.75,
816120.9228 836899.45,
816125.559 836901.15,
816129.268 836902.0773,
816132.977 836903.0045,
816136.686 836903.9318,
816140.395 836904.859,
816144.877 836905.7863,
816149.359 836906.7135,
816153.841 836907.6408,
816158.323 836908.568,
816162.6503 836908.877,
816166.9775 836909.186,
816171.3048 836909.495,
816175.632 836909.804,
816179.8562 836909.804,
816184.0803 836909.804,
816188.3045 836909.804,
816192.5287 836909.804,
816196.7528 836909.804,
816200.977 836909.804,
816205.9121 836909.0274,
816210.8472 836908.2507,
816215.7823 836907.4741,
816220.7173 836906.6974,
816225.6524 836905.9208,
816230.5875 836905.1441,
816235.5226 836904.3675,
816240.4577 836903.5909,
816245.3928 836902.8142,
816250.3278 836902.0376,
816255.2629 836901.2609,
816260.198 836900.4843,
816265.1331 836899.7077,
816270.0682 836898.931,
816275.0033 836898.1544,
816279.9383 836897.3777,
816284.8734 836896.6011,
816289.8085 836895.8244,
816294.7436 836895.0478,
816299.6787 836894.2712,
816304.6138 836893.4945,
816309.5488 836892.7179,
816314.4839 836891.9412,
816319.419 836891.1646,
816324.3541 836890.388,
816329.2892 836889.6113,
816334.2243 836888.8347,
816339.1593 836888.058,
816344.0944 836887.2814,
816349.0295 836886.5047,
816353.9646 836885.7281,
816358.8997 836884.9515,
816363.8348 836884.1748,
816368.7698 836883.3982,
816373.7049 836882.6215,
816378.64 836881.8449,
816383.5751 836881.0682,
816388.5102 836880.2916,
816393.4453 836879.515,
816398.3803 836878.7383,
816403.3154 836877.9617,
816408.2505 836877.185,
816413.1856 836876.4084,
816418.1207 836875.6318,
816423.0558 836874.8551,
816427.9908 836874.0785,
816432.9259 836873.3018,
816437.861 836872.5252,
816442.7961 836871.7485,
816447.7312 836870.9719,
816452.6663 836870.1953,
816457.6013 836869.4186,
816462.5364 836868.642,
816467.4715 836867.8653,
816472.4066 836867.0887,
816477.3417 836866.312,
816482.2768 836865.5354,
816487.2118 836864.7588,
816492.1469 836863.9821,
816497.082 836863.2055,
816502.0171 836862.4288,
816506.9522 836861.6522,
816511.8873 836860.8756,
816516.8223 836860.0989,
816521.7574 836859.3223,
816526.6925 836858.5456,
816531.6276 836857.769,
816536.5627 836856.9923,
816541.4978 836856.2157,
816546.4328 836855.4391,
816551.3679 836854.6624,
816556.303 836853.8858,
816561.2381 836853.1091,
816566.1732 836852.3325,
816571.1083 836851.5559,
816576.0433 836850.7792,
816580.9784 836850.0026,
816585.9135 836849.2259,
816590.8486 836848.4493,
816595.7837 836847.6726,
816600.7188 836846.896,
816605.6538 836846.1194,
816610.5889 836845.3427,
816615.524 836844.5661,
816620.4591 836843.7894,
816625.3942 836843.0128,
816630.3293 836842.2361,
816635.2643 836841.4595,
816640.1994 836840.6829,
816645.1345 836839.9062,
816650.0696 836839.1296,
816655.0047 836838.3529,
816659.9398 836837.5763,
816664.8748 836836.7997,
816669.8099 836836.023,
816674.745 836835.2464,
816679.6801 836834.4697,
816684.6152 836833.6931,
816689.5503 836832.9164,
816694.4853 836832.1398,
816699.4204 836831.3632,
816704.3555 836830.5865,
816709.2906 836829.8099,
816714.2257 836829.0332,
816719.1608 836828.2566,
816724.0958 836827.48,
816729.0309 836826.7033,
816733.966 836825.9267,
816738.9011 836825.15,
816743.8362 836824.3734,
816748.7713 836823.5967,
816753.7063 836822.8201,
816758.6414 836822.0435,
816763.5765 836821.2668,
816768.5116 836820.4902,
816773.4467 836819.7135,
816778.3818 836818.9369,
816783.3168 836818.1602,
816788.2519 836817.3836,
816793.187 836816.607,
816798.1221 836815.8303,
816803.0572 836815.0537,
816807.9923 836814.277,
816812.9273 836813.5004,
816817.8624 836812.7238,
816822.7975 836811.9471,
816827.7326 836811.1705,
816832.6677 836810.3938,
816837.6028 836809.6172,
816842.5378 836808.8405,
816847.4729 836808.0639,
816852.408 836807.2873,
816857.3431 836806.5106,
816862.2782 836805.734,
816867.2133 836804.9573,
816872.1483 836804.1807,
816877.0834 836803.404,
816882.0185 836802.6274,
816886.9536 836801.8508,
816891.8887 836801.0741,
816896.8238 836800.2975,
816901.7588 836799.5208,
816906.6939 836798.7442,
816911.629 836797.9676,
816916.5641 836797.1909,
816921.4992 836796.4143,
816926.4343 836795.6376,
816931.3693 836794.861,
816936.3044 836794.0843,
816941.2395 836793.3077,
816946.1746 836792.5311,
816951.1097 836791.7544,
816956.0448 836790.9778,
816960.9798 836790.2011,
816965.9149 836789.4245,
816970.85 836788.6479,
816975.7851 836787.8712,
816980.7202 836787.0946,
816985.6553 836786.3179,
816990.5903 836785.5413,
816995.5254 836784.7646,
817000.4605 836783.988,
817005.3956 836783.2114,
817010.3307 836782.4347,
817015.2658 836781.6581,
817020.2008 836780.8814,
817025.1359 836780.1048,
817030.071 836779.3281,
817035.0061 836778.5515,
817039.9412 836777.7749,
817044.8763 836776.9982,
817049.8113 836776.2216,
817054.7464 836775.4449,
817059.6815 836774.6683,
817064.6166 836773.8917,
817069.5517 836773.115,
817074.4868 836772.3384,
817079.4218 836771.5617,
817084.3569 836770.7851,
817089.292 836770.0084,
817094.2271 836769.2318,
817099.1622 836768.4552,
817104.0973 836767.6785,
817109.0323 836766.9019,
817113.9674 836766.1252,
817118.9025 836765.3486,
817123.8376 836764.572,
817128.7727 836763.7953,
817133.7078 836763.0187,
817138.6428 836762.242,
817143.5779 836761.4654,
817148.513 836760.6887,
817153.4481 836759.9121,
817158.3832 836759.1355,
817163.3183 836758.3588,
817168.2533 836757.5822,
817173.1884 836756.8055,
817178.1235 836756.0289,
817183.0586 836755.2522,
817187.9937 836754.4756,
817192.9288 836753.699,
817197.8638 836752.9223,
817202.7989 836752.1457,
817207.734 836751.369,
817212.6691 836750.5924,
817217.6042 836749.8158,
817222.5393 836749.0391,
817227.4743 836748.2625,
817232.4094 836747.4858,
817237.3445 836746.7092,
817242.2796 836745.9325,
817247.2147 836745.1559,
817252.1498 836744.3793,
817257.0848 836743.6026,
817262.0199 836742.826,
817266.955 836742.0493,
817271.8901 836741.2727,
817276.8252 836740.496,
817281.7603 836739.7194,
817286.6953 836738.9428,
817291.6304 836738.1661,
817296.5655 836737.3895,
817301.5006 836736.6128,
817306.4357 836735.8362,
817311.3708 836735.0596,
817316.3058 836734.2829,
817321.2409 836733.5063,
817326.176 836732.7296,
817331.1111 836731.953,
817336.0462 836731.1763,
817340.9813 836730.3997,
817345.9163 836729.6231,
817350.8514 836728.8464,
817355.7865 836728.0698,
817360.7216 836727.2931,
817365.6567 836726.5165,
817370.5918 836725.7399,
817375.5268 836724.9632,
817380.4619 836724.1866,
817385.397 836723.4099,
817390.3321 836722.6333,
817395.2672 836721.8566,
817400.2023 836721.08,
817405.1373 836720.3034,
817410.0724 836719.5267,
817415.0075 836718.7501,
817419.9426 836717.9734,
817424.8777 836717.1968,
817429.8128 836716.4201,
817434.7478 836715.6435,
817439.6829 836714.8669,
817444.618 836714.0902,
817449.5531 836713.3136,
817454.4882 836712.5369,
817459.4233 836711.7603,
817464.3583 836710.9837,
817469.2934 836710.207,
817474.2285 836709.4304,
817479.1636 836708.6537,
817484.0987 836707.8771,
817489.0338 836707.1004,
817493.9688 836706.3238,
817498.9039 836705.5472,
817503.839 836704.7705,
817508.7741 836703.9939,
817513.7092 836703.2172,
817518.6443 836702.4406,
817523.5793 836701.664,
817528.5144 836700.8873,
817533.4495 836700.1107,
817538.3846 836699.334,
817543.3197 836698.5574,
817548.2548 836697.7807,
817553.1898 836697.0041,
817558.1249 836696.2275,
817563.06 836695.4508,
817567.9951 836694.6742,
817572.9302 836693.8975,
817577.8653 836693.1209,
817582.8003 836692.3442,
817587.7354 836691.5676,
817592.6705 836690.791,
817597.6056 836690.0143,
817602.5407 836689.2377,
817607.4758 836688.461,
817612.4108 836687.6844,
817617.3459 836686.9078,
817622.281 836686.1311,
817627.2161 836685.3545,
817632.1512 836684.5778,
817637.0863 836683.8012,
817642.0213 836683.0245,
817646.9564 836682.2479,
817651.8915 836681.4713,
817656.8266 836680.6946,
817661.7617 836679.918,
817666.6968 836679.1413,
817671.6318 836678.3647,
817676.5669 836677.588,
817681.502 836676.8114,
817686.4371 836676.0348,
817691.3722 836675.2581,
817696.3073 836674.4815,
817701.2423 836673.7048,
817706.1774 836672.9282,
817711.1125 836672.1516,
817716.0476 836671.3749,
817720.9827 836670.5983,
817725.9178 836669.8216,
817730.8528 836669.045,
817735.7879 836668.2683,
817740.723 836667.4917,
817745.6581 836666.7151,
817750.5932 836665.9384,
817755.5283 836665.1618,
817760.4633 836664.3851,
817765.3984 836663.6085,
817770.3335 836662.8319,
817775.2686 836662.0552,
817780.2037 836661.2786,
817785.1388 836660.5019,
817790.0738 836659.7253,
817795.0089 836658.9486,
817799.944 836658.172,
817803.5897 836657.5086,
817807.2353 836656.8452,
817807.2353 836656.8452,
817810.5511 836656.2418,
817814.1469 836655.6755,
817817.7426 836655.1091,
817817.7426 836655.1091,
817822.1856 836654.4093,
817827.0101 836653.6494,
817831.8347 836652.8895,
817836.6592 836652.1296,
817841.4838 836651.3697,
817846.3083 836650.6099,
817851.1329 836649.85,
817855.9574 836649.0901,
817860.782 836648.3302,
817865.6065 836647.5703,
817868.3353 836647.1405,
817871.064 836646.7107,
817875.872 836645.9534,
817880.6801 836645.1961,
817885.4881 836644.4388,
817890.0904 836643.5663,
817894.6927 836642.6937,
817899.2949 836641.8212,
817903.8972 836640.9486,
817908.4995 836640.0761,
817913.2846 836639.2955,
817918.0697 836638.5149,
817922.8549 836637.7343,
817927.64 836636.9537,
817932.4251 836636.1731,
817937.2102 836635.3925,
817941.9953 836634.6119,
817946.7805 836633.8314,
817951.5656 836633.0508,
817956.3507 836632.2702,
817961.1358 836631.4896,
817965.9209 836630.709,
817970.706 836629.9284,
817975.4912 836629.1478,
817980.2763 836628.3672,
817985.0614 836627.5866,
817989.4527 836626.8452,
817993.8439 836626.1039,
817998.2352 836625.3625,
818001.9556 836624.5448,
818005.676 836623.7271,
818009.3964 836622.9093,
818013.1168 836622.0916,
818017.7087 836620.7501,
818022.3006 836619.4086,
818026.8925 836618.0671,
818031.4844 836616.7256,
818036.0763 836615.3841,
818040.6682 836614.0426,
818045.2601 836612.7011,
818049.8159 836611.093,
818054.3717 836609.485,
818058.9276 836607.8769,
818063.4834 836606.2689,
818068.0392 836604.6608,
818071.739 836603.506,
818075.4388 836602.3511,
818079.1385 836601.1963,
818082.8383 836600.0414,
818086.6878 836599.3998,
818090.5373 836598.7583,
818094.3868 836598.1167,
818098.2363 836597.4751,
818102.5819 836597.15,
818106.9276 836596.825,
818111.2732 836596.4999,
818115.6189 836596.1749,
818119.9645 836595.8498,
818124.8768 836596.3132,
818129.7891 836596.7766,
818132.9369 836597.0736,
818136.0847 836597.3705,
818139.779 836597.719,
818143.4732 836598.0676,
818147.1675 836598.4161,
818150.8301 836599.1174,
818154.4927 836599.8186,
818158.247 836597.5226,
818162.0012 836595.2265,
818165.7555 836592.9305,
818165.7555 836592.9305,
818169.7546 836591.1309,
818172.554 836590.731,
818175.3533 836590.3311,
818178.6526 836590.1312,
818181.9519 836589.9312,
818184.5513 836590.4311,
818187.1507 836590.931,
818191.2165 836592.7972,
818195.2822 836594.6635,
818199.348 836596.5297,
818202.7972 836598.5793,
